t (s),L2
0,0.912871
100,0.821184
200,0.742469
300,0.67183
400,0.608005
500,0.55026
600,0.498003
700,0.450709
800,0.407906
900,0.369169
1000,0.33411
1100,0.30238
1200,0.273664
1300,0.247675
1400,0.224154
1500,0.202867
1600,0.183601
1700,0.166165
1800,0.150385
1900,0.136103
2000,0.123178
2100,0.11148
2200,0.100893
2300,0.0913117
2400,0.0826401
2500,0.074792
2600,0.0676892
2700,0.061261
2800,0.0554432
2900,0.0501779
3000,0.0454127
